wave,flux,error
1.149943575,4.24E-16,1.24E-17
1.150049648,4.26E-16,1.21E-17
1.15015572,4.28E-16,1.17E-17
1.150261792,4.31E-16,1.12E-17
1.150367864,4.33E-16,1.07E-17
1.150473936,4.35E-16,1.02E-17
1.150580008,4.38E-16,9.70E-18
1.15068608,4.40E-16,9.26E-18
1.150792152,4.43E-16,8.90E-18
1.150898224,4.45E-16,8.62E-18
1.151004296,4.47E-16,8.41E-18
1.151110368,4.48E-16,8.25E-18
1.15121644,4.49E-16,8.12E-18
1.151322512,4.50E-16,8.01E-18
1.151428584,4.51E-16,7.91E-18
1.151534656,4.51E-16,7.82E-18
1.151640729,4.50E-16,7.75E-18
1.151746801,4.49E-16,7.72E-18
1.151852873,4.47E-16,7.74E-18
1.151958945,4.45E-16,7.80E-18
1.152065017,4.43E-16,7.91E-18
1.152171089,4.41E-16,8.07E-18
1.152277161,4.38E-16,8.27E-18
1.152383233,4.35E-16,8.51E-18
1.152489305,4.33E-16,8.79E-18
1.152595377,4.31E-16,9.09E-18
1.152701449,4.29E-16,9.41E-18
1.152807521,4.28E-16,9.70E-18
1.152913593,4.28E-16,9.93E-18
1.153019665,4.28E-16,1.01E-17
1.153125738,4.28E-16,1.01E-17
1.15323181,4.29E-16,1.00E-17
1.153337882,4.31E-16,9.86E-18
1.153443954,4.32E-16,9.65E-18
1.153550026,4.34E-16,9.45E-18
1.153656098,4.36E-16,9.31E-18
1.15376217,4.37E-16,9.24E-18
1.153868242,4.37E-16,9.26E-18
1.153974314,4.38E-16,9.32E-18
1.154080386,4.38E-16,9.40E-18
1.154186458,4.37E-16,9.47E-18
1.15429253,4.37E-16,9.48E-18
1.154398602,4.37E-16,9.44E-18
1.154504674,4.36E-16,9.34E-18
1.154610746,4.37E-16,9.19E-18
1.154716819,4.37E-16,9.01E-18
1.154822891,4.38E-16,8.81E-18
1.154928963,4.40E-16,8.60E-18
1.155035035,4.41E-16,8.38E-18
1.155141107,4.43E-16,8.15E-18
1.155247179,4.45E-16,7.94E-18
1.155353251,4.47E-16,7.77E-18
1.155459323,4.50E-16,7.68E-18
1.155565395,4.52E-16,7.70E-18
1.155671467,4.54E-16,7.82E-18
1.155777539,4.56E-16,8.03E-18
1.155883611,4.57E-16,8.27E-18
1.155989683,4.58E-16,8.50E-18
1.156095755,4.58E-16,8.66E-18
1.156201827,4.58E-16,8.74E-18
1.1563079,4.57E-16,8.70E-18
1.156413972,4.55E-16,8.59E-18
1.156520044,4.53E-16,8.42E-18
1.156626116,4.51E-16,8.23E-18
1.156732188,4.48E-16,8.06E-18
1.15683826,4.44E-16,7.92E-18
1.156944332,4.41E-16,7.81E-18
1.157050404,4.38E-16,7.73E-18
1.157156476,4.36E-16,7.66E-18
1.157262548,4.33E-16,7.57E-18
1.15736862,4.31E-16,7.47E-18
1.157474692,4.30E-16,7.36E-18
1.157580764,4.30E-16,7.26E-18
1.157686836,4.30E-16,7.19E-18
1.157792909,4.31E-16,7.17E-18
1.157898981,4.32E-16,7.21E-18
1.158005053,4.33E-16,7.31E-18
1.158111125,4.35E-16,7.46E-18
1.158217197,4.37E-16,7.64E-18
1.158323269,4.39E-16,7.83E-18
1.158429341,4.41E-16,8.01E-18
1.158535413,4.42E-16,8.18E-18
1.158641485,4.43E-16,8.33E-18
1.158747557,4.44E-16,8.48E-18
1.158853629,4.44E-16,8.64E-18
1.158959701,4.44E-16,8.81E-18
1.159065773,4.44E-16,9.01E-18
1.159171845,4.43E-16,9.21E-18
1.159277917,4.42E-16,9.39E-18
1.15938399,4.41E-16,9.54E-18
1.159490062,4.41E-16,9.62E-18
1.159596134,4.40E-16,9.64E-18
1.159702206,4.40E-16,9.61E-18
1.159808278,4.41E-16,9.55E-18
1.15991435,4.42E-16,9.50E-18
1.160020422,4.43E-16,9.48E-18
1.160126494,4.44E-16,9.52E-18
1.160232566,4.44E-16,9.63E-18
1.160338638,4.44E-16,9.79E-18
1.16044471,4.43E-16,9.97E-18
1.160550782,4.40E-16,1.01E-17
1.160656854,4.37E-16,1.02E-17
1.160762926,4.34E-16,1.01E-17
1.160868998,4.30E-16,9.96E-18
1.160975071,4.26E-16,9.66E-18
1.161081143,4.22E-16,9.29E-18
1.161187215,4.19E-16,8.90E-18
1.161293287,4.17E-16,8.55E-18
1.161399359,4.16E-16,8.26E-18
1.161505431,4.16E-16,8.05E-18
1.161611503,4.17E-16,7.92E-18
1.161717575,4.19E-16,7.84E-18
1.161823647,4.22E-16,7.80E-18
1.161929719,4.26E-16,7.78E-18
1.162035791,4.29E-16,7.78E-18
1.162141863,4.33E-16,7.78E-18
1.162247935,4.37E-16,7.78E-18
1.162354007,4.40E-16,7.78E-18
1.16246008,4.43E-16,7.78E-18
1.162566152,4.46E-16,7.79E-18
1.162672224,4.48E-16,7.81E-18
1.162778296,4.51E-16,7.84E-18
1.162884368,4.54E-16,7.89E-18
1.16299044,4.56E-16,7.94E-18
1.163096512,4.59E-16,7.98E-18
1.163202584,4.61E-16,7.98E-18
1.163308656,4.63E-16,7.93E-18
1.163414728,4.64E-16,7.83E-18
1.1635208,4.65E-16,7.69E-18
1.163626872,4.65E-16,7.52E-18
1.163732944,4.65E-16,7.35E-18
1.163839016,4.65E-16,7.21E-18
1.163945088,4.65E-16,7.12E-18
1.164051161,4.65E-16,7.08E-18
1.164157233,4.65E-16,7.10E-18
1.164263305,4.66E-16,7.14E-18
1.164369377,4.67E-16,7.20E-18
1.164475449,4.69E-16,7.27E-18
1.164581521,4.72E-16,7.33E-18
1.164687593,4.75E-16,7.40E-18
1.164793665,4.78E-16,7.50E-18
1.164899737,4.81E-16,7.63E-18
1.165005809,4.84E-16,7.81E-18
1.165111881,4.85E-16,8.02E-18
1.165217953,4.86E-16,8.23E-18
1.165324025,4.85E-16,8.39E-18
1.165430097,4.83E-16,8.49E-18
1.165536169,4.80E-16,8.49E-18
1.165642242,4.77E-16,8.40E-18
1.165748314,4.73E-16,8.24E-18
1.165854386,4.70E-16,8.03E-18
1.165960458,4.67E-16,7.81E-18
1.16606653,4.65E-16,7.62E-18
1.166172602,4.65E-16,7.48E-18
1.166278674,4.65E-16,7.41E-18
1.166384746,4.67E-16,7.41E-18
1.166490818,4.69E-16,7.47E-18
1.16659689,4.71E-16,7.55E-18
1.166702962,4.73E-16,7.61E-18
1.166809034,4.75E-16,7.63E-18
1.166915106,4.75E-16,7.58E-18
1.167021178,4.76E-16,7.46E-18
1.167127251,4.75E-16,7.29E-18
1.167233323,4.74E-16,7.09E-18
1.167339395,4.72E-16,6.89E-18
1.167445467,4.70E-16,6.71E-18
1.167551539,4.68E-16,6.58E-18
1.167657611,4.65E-16,6.48E-18
1.167763683,4.62E-16,6.44E-18
1.167869755,4.59E-16,6.44E-18
1.167975827,4.56E-16,6.48E-18
1.168081899,4.52E-16,6.56E-18
1.168187971,4.48E-16,6.67E-18
1.168294043,4.44E-16,6.82E-18
1.168400115,4.39E-16,6.98E-18
1.168506187,4.33E-16,7.15E-18
1.168612259,4.26E-16,7.32E-18
1.168718332,4.19E-16,7.47E-18
1.168824404,4.11E-16,7.61E-18
1.168930476,4.03E-16,7.71E-18
1.169036548,3.96E-16,7.77E-18
1.16914262,3.88E-16,7.79E-18
1.169248692,3.82E-16,7.77E-18
1.169354764,3.76E-16,7.73E-18
1.169460836,3.73E-16,7.67E-18
1.169566908,3.72E-16,7.61E-18
1.16967298,3.73E-16,7.54E-18
1.169779052,3.77E-16,7.48E-18
1.169885124,3.82E-16,7.42E-18
1.169991196,3.90E-16,7.36E-18
1.170097268,3.99E-16,7.30E-18
1.17020334,4.09E-16,7.26E-18
1.170309413,4.18E-16,7.25E-18
1.170415485,4.27E-16,7.26E-18
1.170521557,4.36E-16,7.29E-18
1.170627629,4.42E-16,7.33E-18
1.170733701,4.47E-16,7.37E-18
1.170839773,4.51E-16,7.41E-18
1.170945845,4.53E-16,7.44E-18
1.171051917,4.53E-16,7.48E-18
1.171157989,4.53E-16,7.51E-18
1.171264061,4.51E-16,7.54E-18
1.171370133,4.50E-16,7.58E-18
1.171476205,4.48E-16,7.62E-18
1.171582277,4.46E-16,7.67E-18
1.171688349,4.44E-16,7.71E-18
1.171794422,4.43E-16,7.75E-18
1.171900494,4.43E-16,7.78E-18
1.172006566,4.43E-16,7.78E-18
1.172112638,4.44E-16,7.74E-18
1.17221871,4.45E-16,7.66E-18
1.172324782,4.46E-16,7.56E-18
1.172430854,4.48E-16,7.43E-18
1.172536926,4.50E-16,7.31E-18
1.172642998,4.53E-16,7.21E-18
1.17274907,4.55E-16,7.15E-18
1.172855142,4.56E-16,7.14E-18
1.172961214,4.57E-16,7.17E-18
1.173067286,4.58E-16,7.22E-18
1.173173358,4.58E-16,7.26E-18
1.17327943,4.58E-16,7.27E-18
1.173385503,4.57E-16,7.25E-18
1.173491575,4.55E-16,7.20E-18
1.173597647,4.53E-16,7.12E-18
1.173703719,4.51E-16,7.03E-18
1.173809791,4.49E-16,6.96E-18
1.173915863,4.46E-16,6.91E-18
1.174021935,4.44E-16,6.89E-18
1.174128007,4.42E-16,6.89E-18
1.174234079,4.40E-16,6.89E-18
1.174340151,4.38E-16,6.89E-18
1.174446223,4.36E-16,6.88E-18
1.174552295,4.34E-16,6.85E-18
1.174658367,4.31E-16,6.81E-18
1.174764439,4.28E-16,6.79E-18
1.174870511,4.24E-16,6.80E-18
1.174976584,4.20E-16,6.86E-18
1.175082656,4.15E-16,6.96E-18
1.175188728,4.11E-16,7.09E-18
1.1752948,4.06E-16,7.23E-18
1.175400872,4.03E-16,7.36E-18
1.175506944,4.00E-16,7.45E-18
1.175613016,3.98E-16,7.50E-18
1.175719088,3.97E-16,7.49E-18
1.17582516,3.98E-16,7.45E-18
1.175931232,3.99E-16,7.38E-18
1.176037304,4.01E-16,7.29E-18
1.176143376,4.03E-16,7.22E-18
1.176249448,4.05E-16,7.16E-18
1.17635552,4.06E-16,7.13E-18
1.176461593,4.06E-16,7.12E-18
1.176567665,4.06E-16,7.14E-18
1.176673737,4.03E-16,7.16E-18
1.176779809,4.00E-16,7.19E-18
1.176885881,3.94E-16,7.20E-18
1.176991953,3.87E-16,7.18E-18
1.177098025,3.79E-16,7.13E-18
1.177204097,3.70E-16,7.05E-18
1.177310169,3.61E-16,6.95E-18
1.177416241,3.53E-16,6.84E-18
1.177522313,3.47E-16,6.72E-18
1.177628385,3.43E-16,6.62E-18
1.177734457,3.42E-16,6.56E-18
1.177840529,3.44E-16,6.52E-18
1.177946601,3.49E-16,6.54E-18
1.178052674,3.56E-16,6.59E-18
1.178158746,3.66E-16,6.67E-18
1.178264818,3.77E-16,6.76E-18
1.17837089,3.88E-16,6.86E-18
1.178476962,4.00E-16,6.95E-18
1.178583034,4.10E-16,7.03E-18
1.178689106,4.20E-16,7.12E-18
1.178795178,4.27E-16,7.21E-18
1.17890125,4.33E-16,7.32E-18
1.179007322,4.38E-16,7.44E-18
1.179113394,4.40E-16,7.57E-18
1.179219466,4.41E-16,7.67E-18
1.179325538,4.41E-16,7.75E-18
1.17943161,4.40E-16,7.78E-18
1.179537682,4.38E-16,7.76E-18
1.179643755,4.36E-16,7.71E-18
1.179749827,4.34E-16,7.63E-18
1.179855899,4.32E-16,7.54E-18
1.179961971,4.31E-16,7.45E-18
1.180068043,4.30E-16,7.37E-18
1.180174115,4.30E-16,7.30E-18
1.180280187,4.30E-16,7.24E-18
1.180386259,4.32E-16,7.19E-18
1.180492331,4.33E-16,7.15E-18
1.180598403,4.35E-16,7.12E-18
1.180704475,4.36E-16,7.08E-18
1.180810547,4.37E-16,7.05E-18
1.180916619,4.38E-16,7.02E-18
1.181022691,4.38E-16,6.98E-18
1.181128764,4.37E-16,6.94E-18
1.181234836,4.35E-16,6.89E-18
1.181340908,4.33E-16,6.83E-18
1.18144698,4.30E-16,6.77E-18
1.181553052,4.26E-16,6.69E-18
1.181659124,4.22E-16,6.61E-18
1.181765196,4.19E-16,6.53E-18
1.181871268,4.15E-16,6.45E-18
1.18197734,4.12E-16,6.37E-18
1.182083412,4.09E-16,6.29E-18
1.182189484,4.06E-16,6.23E-18
1.182295556,4.05E-16,6.20E-18
1.182401628,4.03E-16,6.20E-18
1.1825077,4.03E-16,6.24E-18
1.182613772,4.02E-16,6.33E-18
1.182719845,4.02E-16,6.47E-18
1.182825917,4.03E-16,6.63E-18
1.182931989,4.03E-16,6.80E-18
1.183038061,4.04E-16,6.96E-18
1.183144133,4.04E-16,7.09E-18
1.183250205,4.05E-16,7.18E-18
1.183356277,4.05E-16,7.23E-18
1.183462349,4.06E-16,7.23E-18
1.183568421,4.06E-16,7.19E-18
1.183674493,4.05E-16,7.13E-18
1.183780565,4.05E-16,7.05E-18
1.183886637,4.04E-16,6.98E-18
1.183992709,4.03E-16,6.92E-18
1.184098781,4.02E-16,6.87E-18
1.184204853,4.01E-16,6.82E-18
1.184310926,4.00E-16,6.77E-18
1.184416998,3.99E-16,6.73E-18
1.18452307,3.98E-16,6.70E-18
1.184629142,3.96E-16,6.68E-18
1.184735214,3.95E-16,6.68E-18
1.184841286,3.93E-16,6.70E-18
1.184947358,3.91E-16,6.72E-18
1.18505343,3.90E-16,6.74E-18
1.185159502,3.89E-16,6.76E-18
1.185265574,3.88E-16,6.76E-18
1.185371646,3.89E-16,6.76E-18
1.185477718,3.90E-16,6.75E-18
1.18558379,3.91E-16,6.74E-18
1.185689862,3.94E-16,6.72E-18
1.185795935,3.97E-16,6.69E-18
1.185902007,4.00E-16,6.66E-18
1.186008079,4.03E-16,6.64E-18
1.186114151,4.05E-16,6.63E-18
1.186220223,4.07E-16,6.64E-18
1.186326295,4.08E-16,6.67E-18
1.186432367,4.09E-16,6.72E-18
1.186538439,4.09E-16,6.79E-18
1.186644511,4.09E-16,6.87E-18
1.186750583,4.08E-16,6.96E-18
1.186856655,4.08E-16,7.05E-18
1.186962727,4.07E-16,7.15E-18
1.187068799,4.07E-16,7.23E-18
1.187174871,4.07E-16,7.30E-18
1.187280943,4.07E-16,7.34E-18
1.187387016,4.08E-16,7.37E-18
1.187493088,4.09E-16,7.38E-18
1.18759916,4.10E-16,7.38E-18
1.187705232,4.11E-16,7.39E-18
1.187811304,4.11E-16,7.40E-18
1.187917376,4.11E-16,7.43E-18
1.188023448,4.10E-16,7.47E-18
1.18812952,4.09E-16,7.50E-18
1.188235592,4.07E-16,7.51E-18
1.188341664,4.05E-16,7.49E-18
1.188447736,4.03E-16,7.44E-18
1.188553808,4.02E-16,7.35E-18
1.18865988,4.01E-16,7.22E-18
1.188765952,4.01E-16,7.06E-18
1.188872024,4.02E-16,6.89E-18
1.188978097,4.03E-16,6.73E-18
1.189084169,4.05E-16,6.63E-18
1.189190241,4.08E-16,6.59E-18
1.189296313,4.11E-16,6.62E-18
1.189402385,4.14E-16,6.72E-18
1.189508457,4.17E-16,6.84E-18
1.189614529,4.20E-16,6.95E-18
1.189720601,4.22E-16,7.03E-18
1.189826673,4.24E-16,7.07E-18
1.189932745,4.25E-16,7.06E-18
1.190038817,4.26E-16,7.01E-18
1.190144889,4.27E-16,6.94E-18
1.190250961,4.27E-16,6.87E-18
1.190357033,4.27E-16,6.80E-18
1.190463106,4.27E-16,6.74E-18
1.190569178,4.27E-16,6.69E-18
1.19067525,4.26E-16,6.65E-18
1.190781322,4.25E-16,6.64E-18
1.190887394,4.23E-16,6.66E-18
1.190993466,4.21E-16,6.71E-18
1.191099538,4.19E-16,6.80E-18
1.19120561,4.17E-16,6.89E-18
1.191311682,4.15E-16,6.98E-18
1.191417754,4.12E-16,7.05E-18
1.191523826,4.11E-16,7.09E-18
1.191629898,4.09E-16,7.08E-18
1.19173597,4.08E-16,7.02E-18
1.191842042,4.08E-16,6.94E-18
1.191948114,4.09E-16,6.83E-18
1.192054187,4.10E-16,6.73E-18
1.192160259,4.12E-16,6.65E-18
1.192266331,4.15E-16,6.60E-18
1.192372403,4.18E-16,6.61E-18
1.192478475,4.21E-16,6.67E-18
1.192584547,4.24E-16,6.79E-18
1.192690619,4.28E-16,6.95E-18
1.192796691,4.31E-16,7.13E-18
1.192902763,4.34E-16,7.30E-18
1.193008835,4.36E-16,7.44E-18
1.193114907,4.38E-16,7.52E-18
1.193220979,4.39E-16,7.54E-18
1.193327051,4.39E-16,7.53E-18
1.193433123,4.38E-16,7.50E-18
1.193539195,4.36E-16,7.50E-18
1.193645268,4.34E-16,7.55E-18
1.19375134,4.31E-16,7.64E-18
1.193857412,4.27E-16,7.76E-18
1.193963484,4.23E-16,7.87E-18
1.194069556,4.18E-16,7.95E-18
1.194175628,4.14E-16,7.98E-18
1.1942817,4.10E-16,7.96E-18
1.194387772,4.05E-16,7.90E-18
1.194493844,4.01E-16,7.82E-18
1.194599916,3.97E-16,7.73E-18
1.194705988,3.94E-16,7.64E-18
1.19481206,3.91E-16,7.57E-18
1.194918132,3.88E-16,7.51E-18
1.195024204,3.86E-16,7.45E-18
1.195130277,3.84E-16,7.41E-18
1.195236349,3.83E-16,7.37E-18
1.195342421,3.83E-16,7.34E-18
1.195448493,3.82E-16,7.30E-18
1.195554565,3.83E-16,7.24E-18
1.195660637,3.84E-16,7.16E-18
1.195766709,3.84E-16,7.06E-18
1.195872781,3.85E-16,6.93E-18
1.195978853,3.86E-16,6.80E-18
1.196084925,3.88E-16,6.67E-18
1.196190997,3.89E-16,6.56E-18
1.196297069,3.90E-16,6.49E-18
1.196403141,3.91E-16,6.46E-18
1.196509213,3.93E-16,6.49E-18
1.196615285,3.95E-16,6.59E-18
1.196721358,3.96E-16,6.74E-18
1.19682743,3.97E-16,6.93E-18
1.196933502,3.98E-16,7.14E-18
1.197039574,3.99E-16,7.34E-18
1.197145646,3.99E-16,7.50E-18
1.197251718,3.99E-16,7.60E-18
1.19735779,3.98E-16,7.63E-18
1.197463862,3.98E-16,7.59E-18
1.197569934,3.98E-16,7.50E-18
1.197676006,3.98E-16,7.37E-18
1.197782078,3.99E-16,7.24E-18
1.19788815,4.00E-16,7.12E-18
1.197994222,4.02E-16,7.03E-18
1.198100294,4.04E-16,6.99E-18
1.198206366,4.07E-16,6.99E-18
1.198312439,4.09E-16,7.02E-18
1.198418511,4.10E-16,7.05E-18
1.198524583,4.12E-16,7.07E-18
1.198630655,4.12E-16,7.06E-18
1.198736727,4.12E-16,7.02E-18
1.198842799,4.12E-16,6.94E-18
1.198948871,4.11E-16,6.82E-18
1.199054943,4.11E-16,6.69E-18
1.199161015,4.10E-16,6.54E-18
1.199267087,4.10E-16,6.40E-18
1.199373159,4.10E-16,6.26E-18
1.199479231,4.11E-16,6.14E-18
1.199585303,4.12E-16,6.05E-18
1.199691375,4.13E-16,5.98E-18
1.199797448,4.14E-16,5.95E-18
1.19990352,4.14E-16,5.95E-18
1.200009592,4.15E-16,6.01E-18
1.200115664,4.14E-16,6.11E-18
1.200221736,4.14E-16,6.26E-18
1.200327808,4.13E-16,6.44E-18
1.20043388,4.12E-16,6.63E-18
1.200539952,4.10E-16,6.79E-18
1.200646024,4.09E-16,6.90E-18
1.200752096,4.08E-16,6.96E-18
1.200858168,4.07E-16,6.97E-18
1.20096424,4.06E-16,6.95E-18
1.201070312,4.05E-16,6.92E-18
1.201176384,4.05E-16,6.89E-18
1.201282456,4.05E-16,6.87E-18
1.201388529,4.05E-16,6.87E-18
1.201494601,4.05E-16,6.88E-18
1.201600673,4.06E-16,6.88E-18
1.201706745,4.06E-16,6.88E-18
1.201812817,4.06E-16,6.86E-18
1.201918889,4.05E-16,6.83E-18
1.202024961,4.04E-16,6.78E-18
1.202131033,4.03E-16,6.74E-18
1.202237105,4.02E-16,6.71E-18
1.202343177,4.01E-16,6.70E-18
1.202449249,3.99E-16,6.74E-18
1.202555321,3.98E-16,6.83E-18
1.202661393,3.97E-16,6.97E-18
1.202767465,3.97E-16,7.13E-18
1.202873537,3.98E-16,7.30E-18
1.20297961,3.99E-16,7.43E-18
1.203085682,4.02E-16,7.52E-18
1.203191754,4.05E-16,7.55E-18
1.203297826,4.09E-16,7.51E-18
1.203403898,4.15E-16,7.43E-18
1.20350997,4.20E-16,7.32E-18
1.203616042,4.26E-16,7.20E-18
1.203722114,4.33E-16,7.08E-18
1.203828186,4.38E-16,6.97E-18
1.203934258,4.44E-16,6.87E-18
1.20404033,4.48E-16,6.80E-18
1.204146402,4.51E-16,6.75E-18
1.204252474,4.53E-16,6.74E-18
1.204358546,4.54E-16,6.77E-18
1.204464619,4.54E-16,6.83E-18
1.204570691,4.53E-16,6.92E-18
1.204676763,4.51E-16,7.03E-18
1.204782835,4.49E-16,7.15E-18
1.204888907,4.47E-16,7.29E-18
1.204994979,4.46E-16,7.44E-18
1.205101051,4.44E-16,7.59E-18
1.205207123,4.44E-16,7.73E-18
1.205313195,4.44E-16,7.82E-18
1.205419267,4.45E-16,7.87E-18
1.205525339,4.46E-16,7.86E-18
1.205631411,4.48E-16,7.78E-18
1.205737483,4.50E-16,7.64E-18
1.205843555,4.51E-16,7.46E-18
1.205949627,4.52E-16,7.25E-18
1.2060557,4.53E-16,7.05E-18
1.206161772,4.53E-16,6.87E-18
1.206267844,4.51E-16,6.74E-18
1.206373916,4.49E-16,6.68E-18
1.206479988,4.47E-16,6.70E-18
1.20658606,4.44E-16,6.79E-18
1.206692132,4.40E-16,6.94E-18
1.206798204,4.37E-16,7.12E-18
1.206904276,4.34E-16,7.30E-18
1.207010348,4.32E-16,7.45E-18
1.20711642,4.31E-16,7.54E-18
1.207222492,4.30E-16,7.56E-18
1.207328564,4.31E-16,7.50E-18
1.207434636,4.32E-16,7.38E-18
1.207540708,4.34E-16,7.20E-18
1.207646781,4.36E-16,6.98E-18
1.207752853,4.38E-16,6.76E-18
1.207858925,4.40E-16,6.55E-18
1.207964997,4.42E-16,6.37E-18
1.208071069,4.43E-16,6.23E-18
1.208177141,4.43E-16,6.13E-18
1.208283213,4.43E-16,6.06E-18
1.208389285,4.41E-16,6.03E-18
1.208495357,4.38E-16,6.03E-18
1.208601429,4.35E-16,6.06E-18
1.208707501,4.32E-16,6.11E-18
1.208813573,4.28E-16,6.18E-18
1.208919645,4.25E-16,6.25E-18
1.209025717,4.23E-16,6.32E-18
1.20913179,4.21E-16,6.38E-18
1.209237862,4.21E-16,6.43E-18
1.209343934,4.22E-16,6.48E-18
1.209450006,4.24E-16,6.53E-18
1.209556078,4.27E-16,6.58E-18
1.20966215,4.32E-16,6.60E-18
1.209768222,4.36E-16,6.60E-18
1.209874294,4.41E-16,6.57E-18
1.209980366,4.45E-16,6.51E-18
1.210086438,4.48E-16,6.42E-18
1.21019251,4.50E-16,6.33E-18
1.210298582,4.51E-16,6.25E-18
1.210404654,4.51E-16,6.18E-18
1.210510726,4.50E-16,6.13E-18
1.210616798,4.47E-16,6.08E-18
1.210722871,4.44E-16,6.04E-18
1.210828943,4.41E-16,6.01E-18
1.210935015,4.37E-16,6.00E-18
1.211041087,4.33E-16,6.00E-18
1.211147159,4.30E-16,6.01E-18
1.211253231,4.27E-16,6.05E-18
1.211359303,4.24E-16,6.12E-18
1.211465375,4.23E-16,6.23E-18
1.211571447,4.22E-16,6.40E-18
1.211677519,4.22E-16,6.63E-18
1.211783591,4.23E-16,6.91E-18
1.211889663,4.24E-16,7.24E-18
1.211995735,4.27E-16,7.57E-18
1.212101807,4.30E-16,7.84E-18
1.212207879,4.33E-16,8.03E-18
1.212313952,4.36E-16,8.08E-18
1.212420024,4.38E-16,8.01E-18
1.212526096,4.39E-16,7.82E-18
1.212632168,4.40E-16,7.57E-18
1.21273824,4.39E-16,7.30E-18
1.212844312,4.38E-16,7.09E-18
1.212950384,4.36E-16,7.01E-18
1.213056456,4.35E-16,7.09E-18
1.213162528,4.34E-16,7.36E-18
1.2132686,4.34E-16,7.77E-18
1.213374672,4.35E-16,8.25E-18
1.213480744,4.37E-16,8.71E-18
1.213586816,4.40E-16,9.06E-18
1.213692888,4.44E-16,9.25E-18
1.213798961,4.48E-16,9.22E-18
1.213905033,4.52E-16,9.00E-18
1.214011105,4.55E-16,8.60E-18
1.214117177,4.58E-16,8.10E-18
1.214223249,4.61E-16,7.56E-18
1.214329321,4.62E-16,7.06E-18
1.214435393,4.64E-16,6.64E-18
1.214541465,4.65E-16,6.34E-18
1.214647537,4.66E-16,6.16E-18
1.214753609,4.68E-16,6.07E-18
1.214859681,4.69E-16,6.06E-18
1.214965753,4.71E-16,6.11E-18
1.215071825,4.73E-16,6.18E-18
1.215177897,4.75E-16,6.27E-18
1.215283969,4.77E-16,6.35E-18
1.215390042,4.78E-16,6.42E-18
1.215496114,4.79E-16,6.48E-18
1.215602186,4.79E-16,6.50E-18
1.215708258,4.79E-16,6.49E-18
1.21581433,4.78E-16,6.44E-18
1.215920402,4.77E-16,6.34E-18
1.216026474,4.76E-16,6.20E-18
1.216132546,4.75E-16,6.05E-18
1.216238618,4.75E-16,5.88E-18
1.21634469,4.74E-16,5.73E-18
1.216450762,4.74E-16,5.60E-18
1.216556834,4.74E-16,5.50E-18
1.216662906,4.75E-16,5.44E-18
1.216768978,4.75E-16,5.42E-18
1.21687505,4.75E-16,5.42E-18
1.216981123,4.76E-16,5.46E-18
1.217087195,4.77E-16,5.53E-18
1.217193267,4.78E-16,5.61E-18
1.217299339,4.79E-16,5.71E-18
1.217405411,4.80E-16,5.81E-18
1.217511483,4.81E-16,5.89E-18
1.217617555,4.83E-16,5.95E-18
1.217723627,4.84E-16,5.99E-18
1.217829699,4.85E-16,5.99E-18
1.217935771,4.85E-16,5.97E-18
1.218041843,4.85E-16,5.93E-18
1.218147915,4.85E-16,5.90E-18
1.218253987,4.84E-16,5.88E-18
1.218360059,4.83E-16,5.89E-18
